[Info]
Number of Regions=0001
Version=1.3.1

[Region 1]
Region Name=Pt4f
Dimension 1 name=Binding Energy [eV]
Dimension 1 size=201
Dimension 1 scale=79 78.9500000000001 78.9 78.85 78.7999999999999 78.75 78.7000000000001 78.65 78.6 78.5499999999999 78.5 78.4500000000001 78.4 78.35 78.2999999999999 78.25 78.2000000000001 78.15 78.1 78.0499999999999 78 77.9500000000001 77.9 77.85 77.7999999999999 77.75 77.7000000000001 77.65 77.6 77.5499999999999 77.5 77.4500000000001 77.4 77.35 77.2999999999999 77.25 77.2000000000001 77.15 77.1 77.0499999999999 77 76.9500000000001 76.9 76.85 76.7999999999999 76.75 76.7000000000001 76.65 76.6 76.5499999999999 76.5 76.4500000000001 76.4 76.35 76.2999999999999 76.25 76.2000000000001 76.15 76.1 76.0499999999999 76 75.9500000000001 75.9 75.85 75.7999999999999 75.75 75.7000000000001 75.65 75.6 75.5499999999999 75.5 75.4500000000001 75.4 75.35 75.2999999999999 75.25 75.2000000000001 75.15 75.1 75.0499999999999 75 74.9500000000001 74.9 74.85 74.7999999999999 74.75 74.7000000000001 74.65 74.6 74.5499999999999 74.5 74.4500000000001 74.4 74.35 74.2999999999999 74.25 74.2000000000001 74.15 74.1 74.0499999999999 74 73.9500000000001 73.9 73.85 73.7999999999999 73.75 73.7000000000001 73.65 73.6 73.5499999999999 73.5 73.4500000000001 73.4 73.35 73.2999999999999 73.25 73.2000000000001 73.15 73.1 73.0499999999999 73 72.9500000000001 72.9 72.85 72.7999999999999 72.75 72.7000000000001 72.65 72.6 72.5499999999999 72.5 72.4500000000001 72.4 72.35 72.2999999999999 72.25 72.2000000000001 72.15 72.1 72.0499999999999 72 71.9500000000001 71.9 71.85 71.7999999999999 71.75 71.7000000000001 71.65 71.6 71.5499999999999 71.5 71.4500000000001 71.4 71.35 71.2999999999999 71.25 71.2000000000001 71.15 71.1 71.0499999999999 71 70.9500000000001 70.9 70.85 70.7999999999999 70.75 70.7000000000001 70.65 70.6 70.5499999999999 70.5 70.4500000000001 70.4 70.35 70.2999999999999 70.25 70.2000000000001 70.15 70.1 70.0499999999999 70 69.9500000000001 69.9 69.85 69.7999999999999 69.75 69.7000000000001 69.65 69.6 69.5499999999999 69.5 69.4500000000001 69.4 69.35 69.2999999999999 69.25 69.2000000000001 69.15 69.1 69.0499999999999 69

[Info 1]
Region Name=Pt4f
Lens Mode=SwiftAcc_HiPP3L
Pass Energy=200
Number of Sweeps=4
Excitation Energy=750
Energy Scale=Binding
Acquisition Mode=Swept
Energy Unit=Kinetic
Center Energy=676
Low Energy=671
High Energy=681
Energy Step=0.05
Step Time=98
Detector First X-Channel=1
Detector Last X-Channel=512
Detector First Y-Channel=1
Detector Last Y-Channel=440
Number of Slices=1
File=W:\commissioning\endstation\raw\20200710\XPS_0007.pxt,.txt
Sequence=S:\hippie\commissioning\endstation\raw\20200710\seq_piezo.seq
Spectrum Name=XPS_007
Instrument=HiPP-3L-9676
Location=MaxIV
User=MaxIV
Sample=
Comments=
Date=2020-07-10
Time=08:26:19
Time per Spectrum Channel=104.272
DetectorMode=ADC
[Run Mode Information 1]



[Data 1]
 7.90000000000000E+0001  7.15593189001083E-0001
 7.89500000000001E+0001  6.11091598868370E-0001
 7.89000000000000E+0001  8.21296438574791E-0001
 7.88500000000000E+0001  7.37118646502495E-0001
 7.87999999999999E+0001  6.67227491736412E-0001
 7.87500000000000E+0001  7.85095423460007E-0001
 7.87000000000001E+0001  8.18032264709473E-0001
 7.86500000000000E+0001  7.27855369448662E-0001
 7.86000000000000E+0001  8.79465267062187E-0001
 7.85499999999999E+0001  7.79359742999077E-0001
 7.85000000000000E+0001  8.66028264164925E-0001
 7.84500000000000E+0001  7.15874373912811E-0001
 7.84000000000000E+0001  8.42188462615013E-0001
 7.83500000000000E+0001  8.11935320496559E-0001
 7.83000000000000E+0001  8.14482018351555E-0001
 7.82500000000000E+0001  9.27257522940636E-0001
 7.82000000000001E+0001  7.73313209414482E-0001
 7.81500000000000E+0001  7.32002168893814E-0001
 7.81000000000000E+0001  9.04991000890732E-0001
 7.80499999999999E+0001  7.18590185046196E-0001
 7.80000000000000E+0001  8.67478057742119E-0001
 7.79500000000000E+0001  8.77403721213341E-0001
 7.79000000000000E+0001  8.46246525645256E-0001
 7.78500000000000E+0001  8.85238379240036E-0001
 7.78000000000000E+0001  8.27981412410736E-0001
 7.77500000000000E+0001  8.93356323242188E-0001
 7.77000000000001E+0001  6.78206264972687E-0001
 7.76500000000000E+0001  8.67734059691429E-0001
 7.76000000000000E+0001  8.50677520036697E-0001
 7.75499999999999E+0001  8.09767812490463E-0001
 7.75000000000000E+0001  7.73037329316139E-0001
 7.74500000000001E+0001  8.88950884342194E-0001
 7.74000000000000E+0001  7.35918462276459E-0001
 7.73500000000000E+0001  8.52575838565826E-0001
 7.72999999999999E+0001  7.03940421342850E-0001
 7.72500000000000E+0001  9.55466836690903E-0001
 7.72000000000000E+0001  9.61856797337532E-0001
 7.71500000000000E+0001  9.81656000018120E-0001
 7.71000000000000E+0001  9.42620828747749E-0001
 7.70500000000000E+0001  9.91564422845841E-0001
 7.70000000000000E+0001  9.55783307552338E-0001
 7.69500000000001E+0001  8.22237819433212E-0001
 7.69000000000000E+0001  9.65846747159958E-0001
 7.68500000000000E+0001  9.71059158444405E-0001
 7.67999999999999E+0001  1.06978474557400E+0000
 7.67500000000000E+0001  1.11458542943001E+0000
 7.67000000000000E+0001  1.10995644330978E+0000
 7.66500000000000E+0001  9.65053260326386E-0001
 7.66000000000000E+0001  1.04037687182426E+0000
 7.65500000000000E+0001  1.06519351899624E+0000
 7.65000000000000E+0001  9.76941362023354E-0001
 7.64500000000001E+0001  1.13097164034843E+0000
 7.64000000000000E+0001  1.19793942570686E+0000
 7.63500000000000E+0001  1.08005279302597E+0000
 7.62999999999999E+0001  1.14320102334023E+0000
 7.62500000000000E+0001  1.02843925356865E+0000
 7.62000000000001E+0001  1.34465026855469E+0000
 7.61500000000000E+0001  1.34816044569016E+0000
 7.61000000000000E+0001  1.40265586972237E+0000
 7.60499999999999E+0001  1.37906157970428E+0000
 7.60000000000000E+0001  1.47119507193565E+0000
 7.59500000000000E+0001  1.51698794960976E+0000
 7.59000000000000E+0001  1.35769477486610E+0000
 7.58500000000000E+0001  1.55269280076027E+0000
 7.58000000000000E+0001  1.54865822196007E+0000
 7.57500000000000E+0001  1.80073615908623E+0000
 7.57000000000001E+0001  1.67273026704788E+0000
 7.56500000000000E+0001  1.90136381983757E+0000
 7.56000000000000E+0001  1.91160345077515E+0000
 7.55499999999999E+0001  2.02365303039551E+0000
 7.55000000000000E+0001  2.08203530311584E+0000
 7.54500000000000E+0001  2.36874711513519E+0000
 7.54000000000000E+0001  2.57914841175079E+0000
 7.53500000000000E+0001  2.57224094867706E+0000
 7.53000000000000E+0001  2.77347934246063E+0000
 7.52500000000000E+0001  3.16021031141281E+0000
 7.52000000000001E+0001  3.10047036409378E+0000
 7.51500000000000E+0001  2.99533247947693E+0000
 7.51000000000000E+0001  3.37712967395782E+0000
 7.50499999999999E+0001  3.57249480485916E+0000
 7.50000000000000E+0001  3.49691957235336E+0000
 7.49500000000001E+0001  3.54780244827271E+0000
 7.49000000000000E+0001  3.34335505962372E+0000
 7.48500000000000E+0001  3.31882470846176E+0000
 7.47999999999999E+0001  3.07525712251663E+0000
 7.47500000000000E+0001  2.77068692445755E+0000
 7.47000000000000E+0001  2.83283561468124E+0000
 7.46500000000000E+0001  2.70739996433258E+0000
 7.46000000000000E+0001  2.37434047460556E+0000
 7.45500000000000E+0001  2.13187378644943E+0000
 7.45000000000000E+0001  1.77919816970825E+0000
 7.44500000000001E+0001  1.73962083458900E+0000
 7.44000000000000E+0001  1.57879894971848E+0000
 7.43500000000000E+0001  1.44397100806236E+0000
 7.42999999999999E+0001  1.28609281778336E+0000
 7.42500000000000E+0001  1.09007276594639E+0000
 7.42000000000000E+0001  1.02528794109821E+0000
 7.41500000000000E+0001  9.69870984554291E-0001
 7.41000000000000E+0001  1.02193470299244E+0000
 7.40500000000000E+0001  9.99019458889961E-0001
 7.40000000000000E+0001  9.99301135540009E-0001
 7.39500000000001E+0001  7.80386343598366E-0001
 7.39000000000000E+0001  6.96305140852928E-0001
 7.38500000000000E+0001  8.52423414587975E-0001
 7.37999999999999E+0001  8.21349307894707E-0001
 7.37500000000000E+0001  7.23475560545921E-0001
 7.37000000000001E+0001  8.52065220475197E-0001
 7.36500000000000E+0001  8.55093598365784E-0001
 7.36000000000000E+0001  9.25036758184433E-0001
 7.35499999999999E+0001  8.24676170945167E-0001
 7.35000000000000E+0001  6.95066362619400E-0001
 7.34500000000000E+0001  7.96515598893166E-0001
 7.34000000000000E+0001  8.00232723355293E-0001
 7.33500000000000E+0001  7.99302414059639E-0001
 7.33000000000000E+0001  8.03462520241737E-0001
 7.32500000000000E+0001  9.90398734807968E-0001
 7.32000000000001E+0001  1.01886370778084E+0000
 7.31500000000000E+0001  1.01367527246475E+0000
 7.31000000000000E+0001  9.92149546742439E-0001
 7.30499999999999E+0001  1.11097033321857E+0000
 7.30000000000000E+0001  9.90874260663986E-0001
 7.29500000000000E+0001  1.01363365352154E+0000
 7.29000000000000E+0001  1.17775754630566E+0000
 7.28500000000000E+0001  1.13262164592743E+0000
 7.28000000000000E+0001  1.10554982721806E+0000
 7.27500000000000E+0001  1.21797829866409E+0000
 7.27000000000001E+0001  1.29272967576981E+0000
 7.26500000000000E+0001  1.16658042371273E+0000
 7.26000000000000E+0001  1.35494497418404E+0000
 7.25499999999999E+0001  1.51801317930222E+0000
 7.25000000000000E+0001  1.56883963942528E+0000
 7.24500000000001E+0001  1.66909536719322E+0000
 7.24000000000000E+0001  1.59984931349754E+0000
 7.23500000000000E+0001  1.90195196866989E+0000
 7.22999999999999E+0001  1.98577851057053E+0000
 7.22500000000000E+0001  2.22363993525505E+0000
 7.22000000000000E+0001  2.20367991924286E+0000
 7.21500000000000E+0001  2.48081743717194E+0000
 7.21000000000000E+0001  2.72149497270584E+0000
 7.20500000000000E+0001  2.73052847385406E+0000
 7.20000000000000E+0001  2.83228391408920E+0000
 7.19500000000001E+0001  3.18524622917175E+0000
 7.19000000000000E+0001  3.37307119369507E+0000
 7.18500000000000E+0001  3.48207777738571E+0000
 7.17999999999999E+0001  3.44649142026901E+0000
 7.17500000000000E+0001  3.56656002998352E+0000
 7.17000000000000E+0001  3.82377952337265E+0000
 7.16500000000000E+0001  3.68663114309311E+0000
 7.16000000000000E+0001  3.76745378971100E+0000
 7.15500000000000E+0001  3.85017555952072E+0000
 7.15000000000000E+0001  3.51473790407181E+0000
 7.14500000000001E+0001  3.21894818544388E+0000
 7.14000000000000E+0001  3.01479995250702E+0000
 7.13500000000000E+0001  3.13458198308945E+0000
 7.12999999999999E+0001  2.70803135633469E+0000
 7.12500000000000E+0001  2.43367427587509E+0000
 7.12000000000001E+0001  2.10337537527084E+0000
 7.11500000000000E+0001  1.77534902095795E+0000
 7.11000000000000E+0001  1.50323972105980E+0000
 7.10499999999999E+0001  1.26059132814407E+0000
 7.10000000000000E+0001  1.14185984432697E+0000
 7.09500000000000E+0001  7.87081897258759E-0001
 7.09000000000000E+0001  6.67801707983017E-0001
 7.08500000000000E+0001  5.37195540964603E-0001
 7.08000000000000E+0001  5.10649770498276E-0001
 7.07500000000000E+0001  5.17076909542084E-0001
 7.07000000000001E+0001  4.07483600080013E-0001
 7.06500000000000E+0001  3.80290705710649E-0001
 7.06000000000000E+0001  4.57035094499588E-0001
 7.05499999999999E+0001  2.80918356031179E-0001
 7.05000000000000E+0001  3.46360959112644E-0001
 7.04500000000000E+0001  2.81876489520073E-0001
 7.04000000000000E+0001  2.58906241506338E-0001
 7.03500000000000E+0001  3.43858733773231E-0001
 7.03000000000000E+0001  2.28584380820394E-0001
 7.02500000000000E+0001  2.01792994514108E-0001
 7.02000000000001E+0001  1.86548419296741E-0001
 7.01500000000000E+0001  2.02804829925299E-0001
 7.01000000000000E+0001  1.86748132109642E-0001
 7.00499999999999E+0001  1.44980978220701E-0001
 7.00000000000000E+0001  2.02091127634048E-0001
 6.99500000000001E+0001  2.34087381511927E-0001
 6.99000000000000E+0001  1.92454414442182E-0001
 6.98500000000000E+0001  1.86050418764353E-0001
 6.97999999999999E+0001  2.06515939906240E-0001
 6.97500000000000E+0001  2.63534545898438E-0001
 6.97000000000000E+0001  2.06531904637814E-0001
 6.96500000000000E+0001  1.83254707604647E-0001
 6.96000000000000E+0001  1.74655266106129E-0001
 6.95500000000000E+0001  2.12187262251973E-0001
 6.95000000000000E+0001  1.85085324570537E-0001
 6.94500000000001E+0001  2.01474552974105E-0001
 6.94000000000000E+0001  2.26270699873567E-0001
 6.93500000000000E+0001  1.98267553932965E-0001
 6.92999999999999E+0001  1.76124133169651E-0001
 6.92500000000000E+0001  1.64235679432750E-0001
 6.92000000000000E+0001  1.21841555461288E-0001
 6.91500000000000E+0001  2.03235611319542E-0001
 6.91000000000000E+0001  2.62604303658009E-0001
 6.90500000000000E+0001  1.30030816420913E-0001
 6.90000000000000E+0001  1.79351460188627E-0001

