[Info]
Number of Regions=0001
Version=1.3.1

[Region 1]
Region Name=Survey750
Dimension 1 name=Binding Energy [eV]
Dimension 1 size=1211
Dimension 1 scale=600 599.5 599 598.5 598 597.5 597 596.5 596 595.5 595 594.5 594 593.5 593 592.5 592 591.5 591 590.5 590 589.5 589 588.5 588 587.5 587 586.5 586 585.5 585 584.5 584 583.5 583 582.5 582 581.5 581 580.5 580 579.5 579 578.5 578 577.5 577 576.5 576 575.5 575 574.5 574 573.5 573 572.5 572 571.5 571 570.5 570 569.5 569 568.5 568 567.5 567 566.5 566 565.5 565 564.5 564 563.5 563 562.5 562 561.5 561 560.5 560 559.5 559 558.5 558 557.5 557 556.5 556 555.5 555 554.5 554 553.5 553 552.5 552 551.5 551 550.5 550 549.5 549 548.5 548 547.5 547 546.5 546 545.5 545 544.5 544 543.5 543 542.5 542 541.5 541 540.5 540 539.5 539 538.5 538 537.5 537 536.5 536 535.5 535 534.5 534 533.5 533 532.5 532 531.5 531 530.5 530 529.5 529 528.5 528 527.5 527 526.5 526 525.5 525 524.5 524 523.5 523 522.5 522 521.5 521 520.5 520 519.5 519 518.5 518 517.5 517 516.5 516 515.5 515 514.5 514 513.5 513 512.5 512 511.5 511 510.5 510 509.5 509 508.5 508 507.5 507 506.5 506 505.5 505 504.5 504 503.5 503 502.5 502 501.5 501 500.5 500 499.5 499 498.5 498 497.5 497 496.5 496 495.5 495 494.5 494 493.5 493 492.5 492 491.5 491 490.5 490 489.5 489 488.5 488 487.5 487 486.5 486 485.5 485 484.5 484 483.5 483 482.5 482 481.5 481 480.5 480 479.5 479 478.5 478 477.5 477 476.5 476 475.5 475 474.5 474 473.5 473 472.5 472 471.5 471 470.5 470 469.5 469 468.5 468 467.5 467 466.5 466 465.5 465 464.5 464 463.5 463 462.5 462 461.5 461 460.5 460 459.5 459 458.5 458 457.5 457 456.5 456 455.5 455 454.5 454 453.5 453 452.5 452 451.5 451 450.5 450 449.5 449 448.5 448 447.5 447 446.5 446 445.5 445 444.5 444 443.5 443 442.5 442 441.5 441 440.5 440 439.5 439 438.5 438 437.5 437 436.5 436 435.5 435 434.5 434 433.5 433 432.5 432 431.5 431 430.5 430 429.5 429 428.5 428 427.5 427 426.5 426 425.5 425 424.5 424 423.5 423 422.5 422 421.5 421 420.5 420 419.5 419 418.5 418 417.5 417 416.5 416 415.5 415 414.5 414 413.5 413 412.5 412 411.5 411 410.5 410 409.5 409 408.5 408 407.5 407 406.5 406 405.5 405 404.5 404 403.5 403 402.5 402 401.5 401 400.5 400 399.5 399 398.5 398 397.5 397 396.5 396 395.5 395 394.5 394 393.5 393 392.5 392 391.5 391 390.5 390 389.5 389 388.5 388 387.5 387 386.5 386 385.5 385 384.5 384 383.5 383 382.5 382 381.5 381 380.5 380 379.5 379 378.5 378 377.5 377 376.5 376 375.5 375 374.5 374 373.5 373 372.5 372 371.5 371 370.5 370 369.5 369 368.5 368 367.5 367 366.5 366 365.5 365 364.5 364 363.5 363 362.5 362 361.5 361 360.5 360 359.5 359 358.5 358 357.5 357 356.5 356 355.5 355 354.5 354 353.5 353 352.5 352 351.5 351 350.5 350 349.5 349 348.5 348 347.5 347 346.5 346 345.5 345 344.5 344 343.5 343 342.5 342 341.5 341 340.5 340 339.5 339 338.5 338 337.5 337 336.5 336 335.5 335 334.5 334 333.5 333 332.5 332 331.5 331 330.5 330 329.5 329 328.5 328 327.5 327 326.5 326 325.5 325 324.5 324 323.5 323 322.5 322 321.5 321 320.5 320 319.5 319 318.5 318 317.5 317 316.5 316 315.5 315 314.5 314 313.5 313 312.5 312 311.5 311 310.5 310 309.5 309 308.5 308 307.5 307 306.5 306 305.5 305 304.5 304 303.5 303 302.5 302 301.5 301 300.5 300 299.5 299 298.5 298 297.5 297 296.5 296 295.5 295 294.5 294 293.5 293 292.5 292 291.5 291 290.5 290 289.5 289 288.5 288 287.5 287 286.5 286 285.5 285 284.5 284 283.5 283 282.5 282 281.5 281 280.5 280 279.5 279 278.5 278 277.5 277 276.5 276 275.5 275 274.5 274 273.5 273 272.5 272 271.5 271 270.5 270 269.5 269 268.5 268 267.5 267 266.5 266 265.5 265 264.5 264 263.5 263 262.5 262 261.5 261 260.5 260 259.5 259 258.5 258 257.5 257 256.5 256 255.5 255 254.5 254 253.5 253 252.5 252 251.5 251 250.5 250 249.5 249 248.5 248 247.5 247 246.5 246 245.5 245 244.5 244 243.5 243 242.5 242 241.5 241 240.5 240 239.5 239 238.5 238 237.5 237 236.5 236 235.5 235 234.5 234 233.5 233 232.5 232 231.5 231 230.5 230 229.5 229 228.5 228 227.5 227 226.5 226 225.5 225 224.5 224 223.5 223 222.5 222 221.5 221 220.5 220 219.5 219 218.5 218 217.5 217 216.5 216 215.5 215 214.5 214 213.5 213 212.5 212 211.5 211 210.5 210 209.5 209 208.5 208 207.5 207 206.5 206 205.5 205 204.5 204 203.5 203 202.5 202 201.5 201 200.5 200 199.5 199 198.5 198 197.5 197 196.5 196 195.5 195 194.5 194 193.5 193 192.5 192 191.5 191 190.5 190 189.5 189 188.5 188 187.5 187 186.5 186 185.5 185 184.5 184 183.5 183 182.5 182 181.5 181 180.5 180 179.5 179 178.5 178 177.5 177 176.5 176 175.5 175 174.5 174 173.5 173 172.5 172 171.5 171 170.5 170 169.5 169 168.5 168 167.5 167 166.5 166 165.5 165 164.5 164 163.5 163 162.5 162 161.5 161 160.5 160 159.5 159 158.5 158 157.5 157 156.5 156 155.5 155 154.5 154 153.5 153 152.5 152 151.5 151 150.5 150 149.5 149 148.5 148 147.5 147 146.5 146 145.5 145 144.5 144 143.5 143 142.5 142 141.5 141 140.5 140 139.5 139 138.5 138 137.5 137 136.5 136 135.5 135 134.5 134 133.5 133 132.5 132 131.5 131 130.5 130 129.5 129 128.5 128 127.5 127 126.5 126 125.5 125 124.5 124 123.5 123 122.5 122 121.5 121 120.5 120 119.5 119 118.5 118 117.5 117 116.5 116 115.5 115 114.5 114 113.5 113 112.5 112 111.5 111 110.5 110 109.5 109 108.5 108 107.5 107 106.5 106 105.5 105 104.5 104 103.5 103 102.5 102 101.5 101 100.5 100 99.5 99 98.5 98 97.5 97 96.5 96 95.5 95 94.5 94 93.5 93 92.5 92 91.5 91 90.5 90 89.5 89 88.5 88 87.5 87 86.5 86 85.5 85 84.5 84 83.5 83 82.5 82 81.5 81 80.5 80 79.5 79 78.5 78 77.5 77 76.5 76 75.5 75 74.5 74 73.5 73 72.5 72 71.5 71 70.5 70 69.5 69 68.5 68 67.5 67 66.5 66 65.5 65 64.5 64 63.5 63 62.5 62 61.5 61 60.5 60 59.5 59 58.5 58 57.5 57 56.5 56 55.5 55 54.5 54 53.5 53 52.5 52 51.5 51 50.5 50 49.5 49 48.5 48 47.5 47 46.5 46 45.5 45 44.5 44 43.5 43 42.5 42 41.5 41 40.5 40 39.5 39 38.5 38 37.5 37 36.5 36 35.5 35 34.5 34 33.5 33 32.5 32 31.5 31 30.5 30 29.5 29 28.5 28 27.5 27 26.5 26 25.5 25 24.5 24 23.5 23 22.5 22 21.5 21 20.5 20 19.5 19 18.5 18 17.5 17 16.5 16 15.5 15 14.5 14 13.5 13 12.5 12 11.5 11 10.5 10 9.5 9 8.5 8 7.5 7 6.5 6 5.5 5 4.5 4 3.5 3 2.5 2 1.5 1 0.5 0 -0.5 -1 -1.5 -2 -2.5 -3 -3.5 -4 -4.5 -5

[Info 1]
Region Name=Survey750
Lens Mode=SwiftAcc_HiPP3L
Pass Energy=200
Number of Sweeps=1
Excitation Energy=750
Energy Scale=Binding
Acquisition Mode=Swept
Energy Unit=Kinetic
Center Energy=452.5
Low Energy=150
High Energy=755
Energy Step=0.5
Step Time=100
Detector First X-Channel=1
Detector Last X-Channel=512
Detector First Y-Channel=1
Detector Last Y-Channel=440
Number of Slices=1
File=W:\commissioning\endstation\raw\20200710\XPS_0001.pxt,.txt
Sequence=S:\hippie\commissioning\endstation\raw\20200710\seq_piezo.seq
Spectrum Name=XPS_001
Instrument=HiPP-3L-9676
Location=MaxIV
User=MaxIV
Sample=
Comments=
Date=2020-07-10
Time=06:32:26
Time per Spectrum Channel=2.8
DetectorMode=ADC
[Run Mode Information 1]



[Data 1]
 6.00000000000000E+0002  3.57327079772949E+0000
 5.99500000000000E+0002  3.95294904708862E+0000
 5.99000000000000E+0002  4.23176240921020E+0000
 5.98500000000000E+0002  4.98467969894409E+0000
 5.98000000000000E+0002  4.99715757369995E+0000
 5.97500000000000E+0002  5.65969228744507E+0000
 5.97000000000000E+0002  5.75614309310913E+0000
 5.96500000000000E+0002  6.03929662704468E+0000
 5.96000000000000E+0002  6.56167793273926E+0000
 5.95500000000000E+0002  6.43278217315674E+0000
 5.95000000000000E+0002  6.32972574234009E+0000
 5.94500000000000E+0002  6.27709293365479E+0000
 5.94000000000000E+0002  6.56333351135254E+0000
 5.93500000000000E+0002  6.89629840850830E+0000
 5.93000000000000E+0002  6.70867633819580E+0000
 5.92500000000000E+0002  6.84478950500488E+0000
 5.92000000000000E+0002  6.87876987457275E+0000
 5.91500000000000E+0002  7.19305038452148E+0000
 5.91000000000000E+0002  7.07486581802368E+0000
 5.90500000000000E+0002  7.40510892868042E+0000
 5.90000000000000E+0002  7.76795148849487E+0000
 5.89500000000000E+0002  7.79372930526733E+0000
 5.89000000000000E+0002  8.06097984313965E+0000
 5.88500000000000E+0002  8.31350040435791E+0000
 5.88000000000000E+0002  8.48060703277588E+0000
 5.87500000000000E+0002  8.90144252777100E+0000
 5.87000000000000E+0002  9.25005245208740E+0000
 5.86500000000000E+0002  9.54660892486572E+0000
 5.86000000000000E+0002  1.00604848861694E+0001
 5.85500000000000E+0002  1.00961017608643E+0001
 5.85000000000000E+0002  1.04125938415527E+0001
 5.84500000000000E+0002  1.08580436706543E+0001
 5.84000000000000E+0002  1.05867109298706E+0001
 5.83500000000000E+0002  1.08322057723999E+0001
 5.83000000000000E+0002  1.13235464096069E+0001
 5.82500000000000E+0002  1.14450263977051E+0001
 5.82000000000000E+0002  1.17198753356934E+0001
 5.81500000000000E+0002  1.13915977478027E+0001
 5.81000000000000E+0002  1.14091787338257E+0001
 5.80500000000000E+0002  1.16101217269897E+0001
 5.80000000000000E+0002  1.16171903610230E+0001
 5.79500000000000E+0002  1.13820877075195E+0001
 5.79000000000000E+0002  1.12675018310547E+0001
 5.78500000000000E+0002  1.11759910583496E+0001
 5.78000000000000E+0002  1.13954200744629E+0001
 5.77500000000000E+0002  1.15471067428589E+0001
 5.77000000000000E+0002  1.17926406860352E+0001
 5.76500000000000E+0002  1.16877346038818E+0001
 5.76000000000000E+0002  1.14560546875000E+0001
 5.75500000000000E+0002  1.09905881881714E+0001
 5.75000000000000E+0002  1.09201726913452E+0001
 5.74500000000000E+0002  1.10058221817017E+0001
 5.74000000000000E+0002  1.12634067535400E+0001
 5.73500000000000E+0002  1.11663112640381E+0001
 5.73000000000000E+0002  1.11400232315063E+0001
 5.72500000000000E+0002  1.14179000854492E+0001
 5.72000000000000E+0002  1.08784675598145E+0001
 5.71500000000000E+0002  1.09497957229614E+0001
 5.71000000000000E+0002  1.11083765029907E+0001
 5.70500000000000E+0002  1.13289871215820E+0001
 5.70000000000000E+0002  1.11013431549072E+0001
 5.69500000000000E+0002  1.10022478103638E+0001
 5.69000000000000E+0002  1.11299591064453E+0001
 5.68500000000000E+0002  1.12279310226440E+0001
 5.68000000000000E+0002  1.13211364746094E+0001
 5.67500000000000E+0002  1.14276609420776E+0001
 5.67000000000000E+0002  1.10424575805664E+0001
 5.66500000000000E+0002  1.12776718139648E+0001
 5.66000000000000E+0002  1.10707836151123E+0001
 5.65500000000000E+0002  1.09170408248901E+0001
 5.65000000000000E+0002  1.13039674758911E+0001
 5.64500000000000E+0002  1.11112556457520E+0001
 5.64000000000000E+0002  1.11136722564697E+0001
 5.63500000000000E+0002  1.10291976928711E+0001
 5.63000000000000E+0002  1.12361583709717E+0001
 5.62500000000000E+0002  1.11077365875244E+0001
 5.62000000000000E+0002  1.07761306762695E+0001
 5.61500000000000E+0002  1.12564496994019E+0001
 5.61000000000000E+0002  1.09862108230591E+0001
 5.60500000000000E+0002  1.14091320037842E+0001
 5.60000000000000E+0002  1.13906974792480E+0001
 5.59500000000000E+0002  1.11887006759644E+0001
 5.59000000000000E+0002  1.13331241607666E+0001
 5.58500000000000E+0002  1.15123958587646E+0001
 5.58000000000000E+0002  1.13978576660156E+0001
 5.57500000000000E+0002  1.13577404022217E+0001
 5.57000000000000E+0002  1.16085996627808E+0001
 5.56500000000000E+0002  1.15939931869507E+0001
 5.56000000000000E+0002  1.14356393814087E+0001
 5.55500000000000E+0002  1.15385189056396E+0001
 5.55000000000000E+0002  1.15896701812744E+0001
 5.54500000000000E+0002  1.16898040771484E+0001
 5.54000000000000E+0002  1.15403366088867E+0001
 5.53500000000000E+0002  1.14423551559448E+0001
 5.53000000000000E+0002  1.13470802307129E+0001
 5.52500000000000E+0002  1.12168283462524E+0001
 5.52000000000000E+0002  1.16319684982300E+0001
 5.51500000000000E+0002  1.15845670700073E+0001
 5.51000000000000E+0002  1.09847192764282E+0001
 5.50500000000000E+0002  1.11518669128418E+0001
 5.50000000000000E+0002  1.12809877395630E+0001
 5.49500000000000E+0002  1.08913364410400E+0001
 5.49000000000000E+0002  1.09011402130127E+0001
 5.48500000000000E+0002  1.13060379028320E+0001
 5.48000000000000E+0002  1.12540206909180E+0001
 5.47500000000000E+0002  1.13304328918457E+0001
 5.47000000000000E+0002  1.13917341232300E+0001
 5.46500000000000E+0002  1.13782014846802E+0001
 5.46000000000000E+0002  1.07903280258179E+0001
 5.45500000000000E+0002  1.11366949081421E+0001
 5.45000000000000E+0002  1.12569427490234E+0001
 5.44500000000000E+0002  1.09517993927002E+0001
 5.44000000000000E+0002  1.07413902282715E+0001
 5.43500000000000E+0002  1.11091356277466E+0001
 5.43000000000000E+0002  1.05540981292725E+0001
 5.42500000000000E+0002  1.07910413742065E+0001
 5.42000000000000E+0002  1.04309883117676E+0001
 5.41500000000000E+0002  1.03692550659180E+0001
 5.41000000000000E+0002  1.04017782211304E+0001
 5.40500000000000E+0002  1.00379199981689E+0001
 5.40000000000000E+0002  9.83719825744629E+0000
 5.39500000000000E+0002  1.00913496017456E+0001
 5.39000000000000E+0002  1.03376464843750E+0001
 5.38500000000000E+0002  1.03620491027832E+0001
 5.38000000000000E+0002  1.04287643432617E+0001
 5.37500000000000E+0002  9.96307373046875E+0000
 5.37000000000000E+0002  1.06069641113281E+0001
 5.36500000000000E+0002  1.05837726593018E+0001
 5.36000000000000E+0002  1.10263795852661E+0001
 5.35500000000000E+0002  1.12504310607910E+0001
 5.35000000000000E+0002  1.22177848815918E+0001
 5.34500000000000E+0002  1.49966297149658E+0001
 5.34000000000000E+0002  2.02511215209961E+0001
 5.33500000000000E+0002  2.94257907867432E+0001
 5.33000000000000E+0002  3.82612648010254E+0001
 5.32500000000000E+0002  4.18744125366211E+0001
 5.32000000000000E+0002  3.99651947021484E+0001
 5.31500000000000E+0002  3.38971099853516E+0001
 5.31000000000000E+0002  2.87544803619385E+0001
 5.30500000000000E+0002  2.30744228363037E+0001
 5.30000000000000E+0002  1.74843196868896E+0001
 5.29500000000000E+0002  1.33428182601929E+0001
 5.29000000000000E+0002  1.06151180267334E+0001
 5.28500000000000E+0002  9.99623298645020E+0000
 5.28000000000000E+0002  9.43565368652344E+0000
 5.27500000000000E+0002  9.63620758056641E+0000
 5.27000000000000E+0002  9.60223102569580E+0000
 5.26500000000000E+0002  9.62018680572510E+0000
 5.26000000000000E+0002  9.35078811645508E+0000
 5.25500000000000E+0002  9.47578144073486E+0000
 5.25000000000000E+0002  9.54421901702881E+0000
 5.24500000000000E+0002  9.88928222656250E+0000
 5.24000000000000E+0002  9.53810405731201E+0000
 5.23500000000000E+0002  9.56871032714844E+0000
 5.23000000000000E+0002  9.83809852600098E+0000
 5.22500000000000E+0002  1.00783576965332E+0001
 5.22000000000000E+0002  1.01116170883179E+0001
 5.21500000000000E+0002  1.01499700546265E+0001
 5.21000000000000E+0002  9.95159053802490E+0000
 5.20500000000000E+0002  1.02566938400269E+0001
 5.20000000000000E+0002  1.01456422805786E+0001
 5.19500000000000E+0002  1.04909725189209E+0001
 5.19000000000000E+0002  1.04425630569458E+0001
 5.18500000000000E+0002  1.03579730987549E+0001
 5.18000000000000E+0002  1.03019170761108E+0001
 5.17500000000000E+0002  1.04361724853516E+0001
 5.17000000000000E+0002  1.03958320617676E+0001
 5.16500000000000E+0002  1.01358966827393E+0001
 5.16000000000000E+0002  1.03172035217285E+0001
 5.15500000000000E+0002  1.01610078811646E+0001
 5.15000000000000E+0002  9.98585128784180E+0000
 5.14500000000000E+0002  9.96226024627686E+0000
 5.14000000000000E+0002  1.02661199569702E+0001
 5.13500000000000E+0002  1.03580160140991E+0001
 5.13000000000000E+0002  1.01242923736572E+0001
 5.12500000000000E+0002  1.04726238250732E+0001
 5.12000000000000E+0002  1.03191995620728E+0001
 5.11500000000000E+0002  1.03533344268799E+0001
 5.11000000000000E+0002  1.01464986801147E+0001
 5.10500000000000E+0002  1.02976589202881E+0001
 5.10000000000000E+0002  1.01327085494995E+0001
 5.09500000000000E+0002  1.03415575027466E+0001
 5.09000000000000E+0002  1.06139316558838E+0001
 5.08500000000000E+0002  1.04625339508057E+0001
 5.08000000000000E+0002  1.05132732391357E+0001
 5.07500000000000E+0002  1.04735002517700E+0001
 5.07000000000000E+0002  1.04992246627808E+0001
 5.06500000000000E+0002  1.02103338241577E+0001
 5.06000000000000E+0002  1.03883676528931E+0001
 5.05500000000000E+0002  1.09107561111450E+0001
 5.05000000000000E+0002  1.05875825881958E+0001
 5.04500000000000E+0002  1.07423601150513E+0001
 5.04000000000000E+0002  1.09334430694580E+0001
 5.03500000000000E+0002  1.11096982955933E+0001
 5.03000000000000E+0002  1.08453283309937E+0001
 5.02500000000000E+0002  1.09602336883545E+0001
 5.02000000000000E+0002  1.12297677993774E+0001
 5.01500000000000E+0002  1.11217479705811E+0001
 5.01000000000000E+0002  1.08226490020752E+0001
 5.00500000000000E+0002  1.12409019470215E+0001
 5.00000000000000E+0002  1.13109645843506E+0001
 4.99500000000000E+0002  1.11738853454590E+0001
 4.99000000000000E+0002  1.08729524612427E+0001
 4.98500000000000E+0002  1.13988170623779E+0001
 4.98000000000000E+0002  1.16119241714478E+0001
 4.97500000000000E+0002  1.12096366882324E+0001
 4.97000000000000E+0002  1.13469953536987E+0001
 4.96500000000000E+0002  1.13013534545898E+0001
 4.96000000000000E+0002  1.13265485763550E+0001
 4.95500000000000E+0002  1.10892305374146E+0001
 4.95000000000000E+0002  1.12768020629883E+0001
 4.94500000000000E+0002  1.16980762481689E+0001
 4.94000000000000E+0002  1.13799619674683E+0001
 4.93500000000000E+0002  1.12526683807373E+0001
 4.93000000000000E+0002  1.10474882125854E+0001
 4.92500000000000E+0002  1.12558736801147E+0001
 4.92000000000000E+0002  1.16306028366089E+0001
 4.91500000000000E+0002  1.16658668518066E+0001
 4.91000000000000E+0002  1.13714294433594E+0001
 4.90500000000000E+0002  1.15413103103638E+0001
 4.90000000000000E+0002  1.15992908477783E+0001
 4.89500000000000E+0002  1.16533098220825E+0001
 4.89000000000000E+0002  1.16737766265869E+0001
 4.88500000000000E+0002  1.17797479629517E+0001
 4.88000000000000E+0002  1.14471740722656E+0001
 4.87500000000000E+0002  1.18578863143921E+0001
 4.87000000000000E+0002  1.17347326278687E+0001
 4.86500000000000E+0002  1.20135660171509E+0001
 4.86000000000000E+0002  1.17066183090210E+0001
 4.85500000000000E+0002  1.19883136749268E+0001
 4.85000000000000E+0002  1.17609071731567E+0001
 4.84500000000000E+0002  1.19842166900635E+0001
 4.84000000000000E+0002  1.19928417205811E+0001
 4.83500000000000E+0002  1.15828495025635E+0001
 4.83000000000000E+0002  1.16366767883301E+0001
 4.82500000000000E+0002  1.16511697769165E+0001
 4.82000000000000E+0002  1.19570198059082E+0001
 4.81500000000000E+0002  1.16587495803833E+0001
 4.81000000000000E+0002  1.17443161010742E+0001
 4.80500000000000E+0002  1.15794181823730E+0001
 4.80000000000000E+0002  1.18308372497559E+0001
 4.79500000000000E+0002  1.14912490844727E+0001
 4.79000000000000E+0002  1.13735885620117E+0001
 4.78500000000000E+0002  1.14588994979858E+0001
 4.78000000000000E+0002  1.11663436889648E+0001
 4.77500000000000E+0002  1.15332269668579E+0001
 4.77000000000000E+0002  1.12527647018433E+0001
 4.76500000000000E+0002  1.13635797500610E+0001
 4.76000000000000E+0002  1.10235385894775E+0001
 4.75500000000000E+0002  1.13033332824707E+0001
 4.75000000000000E+0002  1.11060800552368E+0001
 4.74500000000000E+0002  1.13304300308228E+0001
 4.74000000000000E+0002  1.07959156036377E+0001
 4.73500000000000E+0002  1.13411159515381E+0001
 4.73000000000000E+0002  1.08291330337524E+0001
 4.72500000000000E+0002  1.09413080215454E+0001
 4.72000000000000E+0002  1.05844640731812E+0001
 4.71500000000000E+0002  1.10057811737061E+0001
 4.71000000000000E+0002  1.07869253158569E+0001
 4.70500000000000E+0002  1.11383819580078E+0001
 4.70000000000000E+0002  1.09957790374756E+0001
 4.69500000000000E+0002  1.11925115585327E+0001
 4.69000000000000E+0002  1.10306577682495E+0001
 4.68500000000000E+0002  1.11152534484863E+0001
 4.68000000000000E+0002  1.11277599334717E+0001
 4.67500000000000E+0002  1.12266225814819E+0001
 4.67000000000000E+0002  1.10797443389893E+0001
 4.66500000000000E+0002  1.15613718032837E+0001
 4.66000000000000E+0002  1.12294569015503E+0001
 4.65500000000000E+0002  1.14114007949829E+0001
 4.65000000000000E+0002  1.15131053924561E+0001
 4.64500000000000E+0002  1.14453258514404E+0001
 4.64000000000000E+0002  1.16880187988281E+0001
 4.63500000000000E+0002  1.19160184860230E+0001
 4.63000000000000E+0002  1.20607233047485E+0001
 4.62500000000000E+0002  1.18772449493408E+0001
 4.62000000000000E+0002  1.16527633666992E+0001
 4.61500000000000E+0002  1.19128103256226E+0001
 4.61000000000000E+0002  1.21603126525879E+0001
 4.60500000000000E+0002  1.20254945755005E+0001
 4.60000000000000E+0002  1.28807802200317E+0001
 4.59500000000000E+0002  1.23068580627441E+0001
 4.59000000000000E+0002  1.23890991210937E+0001
 4.58500000000000E+0002  1.23506355285645E+0001
 4.58000000000000E+0002  1.23997583389282E+0001
 4.57500000000000E+0002  1.20190095901489E+0001
 4.57000000000000E+0002  1.22378358840942E+0001
 4.56500000000000E+0002  1.23603992462158E+0001
 4.56000000000000E+0002  1.21686573028564E+0001
 4.55500000000000E+0002  1.20438518524170E+0001
 4.55000000000000E+0002  1.20741567611694E+0001
 4.54500000000000E+0002  1.15578079223633E+0001
 4.54000000000000E+0002  1.17133827209473E+0001
 4.53500000000000E+0002  1.18107767105103E+0001
 4.53000000000000E+0002  1.13261184692383E+0001
 4.52500000000000E+0002  1.13484649658203E+0001
 4.52000000000000E+0002  1.12150716781616E+0001
 4.51500000000000E+0002  1.16222963333130E+0001
 4.51000000000000E+0002  1.16262655258179E+0001
 4.50500000000000E+0002  1.12974920272827E+0001
 4.50000000000000E+0002  1.16354064941406E+0001
 4.49500000000000E+0002  1.11767663955688E+0001
 4.49000000000000E+0002  1.10498876571655E+0001
 4.48500000000000E+0002  1.13232936859131E+0001
 4.48000000000000E+0002  1.11958961486816E+0001
 4.47500000000000E+0002  1.13871259689331E+0001
 4.47000000000000E+0002  1.14035234451294E+0001
 4.46500000000000E+0002  1.13957777023315E+0001
 4.46000000000000E+0002  1.16896295547485E+0001
 4.45500000000000E+0002  1.14577741622925E+0001
 4.45000000000000E+0002  1.12836580276489E+0001
 4.44500000000000E+0002  1.15920152664185E+0001
 4.44000000000000E+0002  1.16315288543701E+0001
 4.43500000000000E+0002  1.15373430252075E+0001
 4.43000000000000E+0002  1.17482814788818E+0001
 4.42500000000000E+0002  1.14916391372681E+0001
 4.42000000000000E+0002  1.18503265380859E+0001
 4.41500000000000E+0002  1.20722379684448E+0001
 4.41000000000000E+0002  1.23907651901245E+0001
 4.40500000000000E+0002  1.27517051696777E+0001
 4.40000000000000E+0002  1.28770570755005E+0001
 4.39500000000000E+0002  1.26687192916870E+0001
 4.39000000000000E+0002  1.25893297195435E+0001
 4.38500000000000E+0002  1.23820962905884E+0001
 4.38000000000000E+0002  1.23550462722778E+0001
 4.37500000000000E+0002  1.19355020523071E+0001
 4.37000000000000E+0002  1.19058933258057E+0001
 4.36500000000000E+0002  1.19601449966431E+0001
 4.36000000000000E+0002  1.24412965774536E+0001
 4.35500000000000E+0002  1.17750072479248E+0001
 4.35000000000000E+0002  1.14746503829956E+0001
 4.34500000000000E+0002  1.18773908615112E+0001
 4.34000000000000E+0002  1.17879257202148E+0001
 4.33500000000000E+0002  1.15977859497070E+0001
 4.33000000000000E+0002  1.17726192474365E+0001
 4.32500000000000E+0002  1.19525766372681E+0001
 4.32000000000000E+0002  1.17529964447021E+0001
 4.31500000000000E+0002  1.17959766387939E+0001
 4.31000000000000E+0002  1.20084180831909E+0001
 4.30500000000000E+0002  1.18790426254272E+0001
 4.30000000000000E+0002  1.19262619018555E+0001
 4.29500000000000E+0002  1.18919525146484E+0001
 4.29000000000000E+0002  1.17504653930664E+0001
 4.28500000000000E+0002  1.23867139816284E+0001
 4.28000000000000E+0002  1.23639078140259E+0001
 4.27500000000000E+0002  1.19936733245850E+0001
 4.27000000000000E+0002  1.21917009353638E+0001
 4.26500000000000E+0002  1.19687604904175E+0001
 4.26000000000000E+0002  1.20460443496704E+0001
 4.25500000000000E+0002  1.17987194061279E+0001
 4.25000000000000E+0002  1.22358112335205E+0001
 4.24500000000000E+0002  1.19973077774048E+0001
 4.24000000000000E+0002  1.24118919372559E+0001
 4.23500000000000E+0002  1.19602336883545E+0001
 4.23000000000000E+0002  1.22164344787598E+0001
 4.22500000000000E+0002  1.19319162368774E+0001
 4.22000000000000E+0002  1.22291955947876E+0001
 4.21500000000000E+0002  1.19205636978149E+0001
 4.21000000000000E+0002  1.21242418289185E+0001
 4.20500000000000E+0002  1.19401292800903E+0001
 4.20000000000000E+0002  1.22720470428467E+0001
 4.19500000000000E+0002  1.25082254409790E+0001
 4.19000000000000E+0002  1.20215959548950E+0001
 4.18500000000000E+0002  1.19910001754761E+0001
 4.18000000000000E+0002  1.21852588653564E+0001
 4.17500000000000E+0002  1.23690271377563E+0001
 4.17000000000000E+0002  1.30289173126221E+0001
 4.16500000000000E+0002  1.23679742813110E+0001
 4.16000000000000E+0002  1.25169744491577E+0001
 4.15500000000000E+0002  1.24738063812256E+0001
 4.15000000000000E+0002  1.25430326461792E+0001
 4.14500000000000E+0002  1.26976680755615E+0001
 4.14000000000000E+0002  1.28864974975586E+0001
 4.13500000000000E+0002  1.26661310195923E+0001
 4.13000000000000E+0002  1.26497735977173E+0001
 4.12500000000000E+0002  1.29626846313477E+0001
 4.12000000000000E+0002  1.33107166290283E+0001
 4.11500000000000E+0002  1.25161275863647E+0001
 4.11000000000000E+0002  1.26520948410034E+0001
 4.10500000000000E+0002  1.27822399139404E+0001
 4.10000000000000E+0002  1.27495250701904E+0001
 4.09500000000000E+0002  1.33137731552124E+0001
 4.09000000000000E+0002  1.30526046752930E+0001
 4.08500000000000E+0002  1.27887582778931E+0001
 4.08000000000000E+0002  1.30778760910034E+0001
 4.07500000000000E+0002  1.31310825347900E+0001
 4.07000000000000E+0002  1.33265657424927E+0001
 4.06500000000000E+0002  1.29158143997192E+0001
 4.06000000000000E+0002  1.32115440368652E+0001
 4.05500000000000E+0002  1.33607378005981E+0001
 4.05000000000000E+0002  1.35000448226929E+0001
 4.04500000000000E+0002  1.33110227584839E+0001
 4.04000000000000E+0002  1.37214984893799E+0001
 4.03500000000000E+0002  1.37311782836914E+0001
 4.03000000000000E+0002  1.35050354003906E+0001
 4.02500000000000E+0002  1.37231492996216E+0001
 4.02000000000000E+0002  1.40229005813599E+0001
 4.01500000000000E+0002  1.39343099594116E+0001
 4.01000000000000E+0002  1.45302162170410E+0001
 4.00500000000000E+0002  1.52634029388428E+0001
 4.00000000000000E+0002  1.54527044296265E+0001
 3.99500000000000E+0002  1.58234624862671E+0001
 3.99000000000000E+0002  1.55739974975586E+0001
 3.98500000000000E+0002  1.45545539855957E+0001
 3.98000000000000E+0002  1.44493055343628E+0001
 3.97500000000000E+0002  1.39289827346802E+0001
 3.97000000000000E+0002  1.38532896041870E+0001
 3.96500000000000E+0002  1.38440618515015E+0001
 3.96000000000000E+0002  1.35732812881470E+0001
 3.95500000000000E+0002  1.37840013504028E+0001
 3.95000000000000E+0002  1.41459674835205E+0001
 3.94500000000000E+0002  1.39857978820801E+0001
 3.94000000000000E+0002  1.37904968261719E+0001
 3.93500000000000E+0002  1.37482137680054E+0001
 3.93000000000000E+0002  1.40852508544922E+0001
 3.92500000000000E+0002  1.39580421447754E+0001
 3.92000000000000E+0002  1.39697046279907E+0001
 3.91500000000000E+0002  1.42197904586792E+0001
 3.91000000000000E+0002  1.39172306060791E+0001
 3.90500000000000E+0002  1.40710983276367E+0001
 3.90000000000000E+0002  1.39255723953247E+0001
 3.89500000000000E+0002  1.38012723922729E+0001
 3.89000000000000E+0002  1.43927354812622E+0001
 3.88500000000000E+0002  1.40114622116089E+0001
 3.88000000000000E+0002  1.43389301300049E+0001
 3.87500000000000E+0002  1.40535125732422E+0001
 3.87000000000000E+0002  1.42208375930786E+0001
 3.86500000000000E+0002  1.38979682922363E+0001
 3.86000000000000E+0002  1.41891336441040E+0001
 3.85500000000000E+0002  1.38683223724365E+0001
 3.85000000000000E+0002  1.40930986404419E+0001
 3.84500000000000E+0002  1.41324138641357E+0001
 3.84000000000000E+0002  1.42636585235596E+0001
 3.83500000000000E+0002  1.44202899932861E+0001
 3.83000000000000E+0002  1.41385107040405E+0001
 3.82500000000000E+0002  1.41914663314819E+0001
 3.82000000000000E+0002  1.43867216110230E+0001
 3.81500000000000E+0002  1.44026460647583E+0001
 3.81000000000000E+0002  1.41608037948608E+0001
 3.80500000000000E+0002  1.49189796447754E+0001
 3.80000000000000E+0002  1.46635637283325E+0001
 3.79500000000000E+0002  1.46595792770386E+0001
 3.79000000000000E+0002  1.47478513717651E+0001
 3.78500000000000E+0002  1.48379487991333E+0001
 3.78000000000000E+0002  1.47007369995117E+0001
 3.77500000000000E+0002  1.50532159805298E+0001
 3.77000000000000E+0002  1.44839878082275E+0001
 3.76500000000000E+0002  1.48031635284424E+0001
 3.76000000000000E+0002  1.45004253387451E+0001
 3.75500000000000E+0002  1.43850641250610E+0001
 3.75000000000000E+0002  1.47971038818359E+0001
 3.74500000000000E+0002  1.49587287902832E+0001
 3.74000000000000E+0002  1.47233123779297E+0001
 3.73500000000000E+0002  1.46617212295532E+0001
 3.73000000000000E+0002  1.48513059616089E+0001
 3.72500000000000E+0002  1.47068786621094E+0001
 3.72000000000000E+0002  1.48622760772705E+0001
 3.71500000000000E+0002  1.51319303512573E+0001
 3.71000000000000E+0002  1.50194272994995E+0001
 3.70500000000000E+0002  1.50295228958130E+0001
 3.70000000000000E+0002  1.49024944305420E+0001
 3.69500000000000E+0002  1.50903949737549E+0001
 3.69000000000000E+0002  1.47605047225952E+0001
 3.68500000000000E+0002  1.51638545989990E+0001
 3.68000000000000E+0002  1.57140188217163E+0001
 3.67500000000000E+0002  1.49891176223755E+0001
 3.67000000000000E+0002  1.45574340820312E+0001
 3.66500000000000E+0002  1.49126796722412E+0001
 3.66000000000000E+0002  1.48805398941040E+0001
 3.65500000000000E+0002  1.51725749969482E+0001
 3.65000000000000E+0002  1.46874885559082E+0001
 3.64500000000000E+0002  1.53591394424438E+0001
 3.64000000000000E+0002  1.53122434616089E+0001
 3.63500000000000E+0002  1.47834959030151E+0001
 3.63000000000000E+0002  1.52507257461548E+0001
 3.62500000000000E+0002  1.55412921905518E+0001
 3.62000000000000E+0002  1.49180011749268E+0001
 3.61500000000000E+0002  1.53911304473877E+0001
 3.61000000000000E+0002  1.52282066345215E+0001
 3.60500000000000E+0002  1.51204586029053E+0001
 3.60000000000000E+0002  1.52183361053467E+0001
 3.59500000000000E+0002  1.51886501312256E+0001
 3.59000000000000E+0002  1.53321657180786E+0001
 3.58500000000000E+0002  1.55166978836060E+0001
 3.58000000000000E+0002  1.54512042999268E+0001
 3.57500000000000E+0002  1.53815174102783E+0001
 3.57000000000000E+0002  1.61499423980713E+0001
 3.56500000000000E+0002  1.51340465545654E+0001
 3.56000000000000E+0002  1.53964538574219E+0001
 3.55500000000000E+0002  1.53625440597534E+0001
 3.55000000000000E+0002  1.56142873764038E+0001
 3.54500000000000E+0002  1.53947906494141E+0001
 3.54000000000000E+0002  1.55713930130005E+0001
 3.53500000000000E+0002  1.56841945648193E+0001
 3.53000000000000E+0002  1.62006092071533E+0001
 3.52500000000000E+0002  1.75138988494873E+0001
 3.52000000000000E+0002  1.86821174621582E+0001
 3.51500000000000E+0002  2.02547531127930E+0001
 3.51000000000000E+0002  2.03956260681152E+0001
 3.50500000000000E+0002  1.84730167388916E+0001
 3.50000000000000E+0002  1.68677845001221E+0001
 3.49500000000000E+0002  1.70528430938721E+0001
 3.49000000000000E+0002  1.85481033325195E+0001
 3.48500000000000E+0002  2.16999988555908E+0001
 3.48000000000000E+0002  2.51763553619385E+0001
 3.47500000000000E+0002  2.51859359741211E+0001
 3.47000000000000E+0002  2.13483295440674E+0001
 3.46500000000000E+0002  1.73133983612061E+0001
 3.46000000000000E+0002  1.53898124694824E+0001
 3.45500000000000E+0002  1.47197961807251E+0001
 3.45000000000000E+0002  1.47364673614502E+0001
 3.44500000000000E+0002  1.46574354171753E+0001
 3.44000000000000E+0002  1.45530300140381E+0001
 3.43500000000000E+0002  1.46978569030762E+0001
 3.43000000000000E+0002  1.48528108596802E+0001
 3.42500000000000E+0002  1.46124486923218E+0001
 3.42000000000000E+0002  1.48027076721191E+0001
 3.41500000000000E+0002  1.48397455215454E+0001
 3.41000000000000E+0002  1.44711380004883E+0001
 3.40500000000000E+0002  1.46391611099243E+0001
 3.40000000000000E+0002  1.48611717224121E+0001
 3.39500000000000E+0002  1.50850133895874E+0001
 3.39000000000000E+0002  1.49188251495361E+0001
 3.38500000000000E+0002  1.51617660522461E+0001
 3.38000000000000E+0002  1.53359012603760E+0001
 3.37500000000000E+0002  1.54005479812622E+0001
 3.37000000000000E+0002  1.52799167633057E+0001
 3.36500000000000E+0002  1.53814811706543E+0001
 3.36000000000000E+0002  1.53307676315308E+0001
 3.35500000000000E+0002  1.58639049530029E+0001
 3.35000000000000E+0002  1.53065376281738E+0001
 3.34500000000000E+0002  1.60743217468262E+0001
 3.34000000000000E+0002  1.59780225753784E+0001
 3.33500000000000E+0002  1.64789104461670E+0001
 3.33000000000000E+0002  1.68408603668213E+0001
 3.32500000000000E+0002  1.69814720153809E+0001
 3.32000000000000E+0002  1.74475727081299E+0001
 3.31500000000000E+0002  1.79442024230957E+0001
 3.31000000000000E+0002  1.71335105895996E+0001
 3.30500000000000E+0002  1.68009719848633E+0001
 3.30000000000000E+0002  1.56817579269409E+0001
 3.29500000000000E+0002  1.58315801620483E+0001
 3.29000000000000E+0002  1.54227485656738E+0001
 3.28500000000000E+0002  1.51545581817627E+0001
 3.28000000000000E+0002  1.53102493286133E+0001
 3.27500000000000E+0002  1.46933803558350E+0001
 3.27000000000000E+0002  1.49346485137939E+0001
 3.26500000000000E+0002  1.46503105163574E+0001
 3.26000000000000E+0002  1.43855657577515E+0001
 3.25500000000000E+0002  1.45108108520508E+0001
 3.25000000000000E+0002  1.45505809783936E+0001
 3.24500000000000E+0002  1.46278038024902E+0001
 3.24000000000000E+0002  1.42762441635132E+0001
 3.23500000000000E+0002  1.44174137115479E+0001
 3.23000000000000E+0002  1.46858777999878E+0001
 3.22500000000000E+0002  1.45796461105347E+0001
 3.22000000000000E+0002  1.51034879684448E+0001
 3.21500000000000E+0002  1.49859476089478E+0001
 3.21000000000000E+0002  1.53675479888916E+0001
 3.20500000000000E+0002  1.50520534515381E+0001
 3.20000000000000E+0002  1.51477441787720E+0001
 3.19500000000000E+0002  1.55838937759399E+0001
 3.19000000000000E+0002  1.54951610565186E+0001
 3.18500000000000E+0002  1.60707874298096E+0001
 3.18000000000000E+0002  1.60741252899170E+0001
 3.17500000000000E+0002  1.67094707489014E+0001
 3.17000000000000E+0002  1.75402107238770E+0001
 3.16500000000000E+0002  1.81673221588135E+0001
 3.16000000000000E+0002  1.87304477691650E+0001
 3.15500000000000E+0002  1.96044273376465E+0001
 3.15000000000000E+0002  2.00762252807617E+0001
 3.14500000000000E+0002  1.95698165893555E+0001
 3.14000000000000E+0002  1.87621421813965E+0001
 3.13500000000000E+0002  1.78276462554932E+0001
 3.13000000000000E+0002  1.68105888366699E+0001
 3.12500000000000E+0002  1.61666584014893E+0001
 3.12000000000000E+0002  1.58700962066650E+0001
 3.11500000000000E+0002  1.48688888549805E+0001
 3.11000000000000E+0002  1.45646924972534E+0001
 3.10500000000000E+0002  1.44024991989136E+0001
 3.10000000000000E+0002  1.45956115722656E+0001
 3.09500000000000E+0002  1.39991788864136E+0001
 3.09000000000000E+0002  1.40375995635986E+0001
 3.08500000000000E+0002  1.39439315795898E+0001
 3.08000000000000E+0002  1.37459535598755E+0001
 3.07500000000000E+0002  1.37765197753906E+0001
 3.07000000000000E+0002  1.36627025604248E+0001
 3.06500000000000E+0002  1.35721912384033E+0001
 3.06000000000000E+0002  1.33577709197998E+0001
 3.05500000000000E+0002  1.35608549118042E+0001
 3.05000000000000E+0002  1.38076934814453E+0001
 3.04500000000000E+0002  1.35586185455322E+0001
 3.04000000000000E+0002  1.32641153335571E+0001
 3.03500000000000E+0002  1.32098865509033E+0001
 3.03000000000000E+0002  1.31232652664185E+0001
 3.02500000000000E+0002  1.32902946472168E+0001
 3.02000000000000E+0002  1.34568567276001E+0001
 3.01500000000000E+0002  1.31610155105591E+0001
 3.01000000000000E+0002  1.32914428710937E+0001
 3.00500000000000E+0002  1.32031917572021E+0001
 3.00000000000000E+0002  1.34105644226074E+0001
 2.99500000000000E+0002  1.32279481887817E+0001
 2.99000000000000E+0002  1.33531894683838E+0001
 2.98500000000000E+0002  1.35464143753052E+0001
 2.98000000000000E+0002  1.38547601699829E+0001
 2.97500000000000E+0002  1.42630062103271E+0001
 2.97000000000000E+0002  1.47093095779419E+0001
 2.96500000000000E+0002  1.42478294372559E+0001
 2.96000000000000E+0002  1.42953538894653E+0001
 2.95500000000000E+0002  1.43750391006470E+0001
 2.95000000000000E+0002  1.45730943679810E+0001
 2.94500000000000E+0002  1.52624273300171E+0001
 2.94000000000000E+0002  1.59927635192871E+0001
 2.93500000000000E+0002  1.62293300628662E+0001
 2.93000000000000E+0002  1.51357488632202E+0001
 2.92500000000000E+0002  1.44127321243286E+0001
 2.92000000000000E+0002  1.42939071655273E+0001
 2.91500000000000E+0002  1.43823118209839E+0001
 2.91000000000000E+0002  1.45521898269653E+0001
 2.90500000000000E+0002  1.55608425140381E+0001
 2.90000000000000E+0002  1.55034236907959E+0001
 2.89500000000000E+0002  1.66122856140137E+0001
 2.89000000000000E+0002  1.72800998687744E+0001
 2.88500000000000E+0002  1.76975250244141E+0001
 2.88000000000000E+0002  1.76746063232422E+0001
 2.87500000000000E+0002  1.85766849517822E+0001
 2.87000000000000E+0002  2.06893081665039E+0001
 2.86500000000000E+0002  2.25867938995361E+0001
 2.86000000000000E+0002  2.75972843170166E+0001
 2.85500000000000E+0002  3.26972923278809E+0001
 2.85000000000000E+0002  3.01837692260742E+0001
 2.84500000000000E+0002  2.21071414947510E+0001
 2.84000000000000E+0002  1.60137195587158E+0001
 2.83500000000000E+0002  1.36917676925659E+0001
 2.83000000000000E+0002  1.34240760803223E+0001
 2.82500000000000E+0002  1.34214057922363E+0001
 2.82000000000000E+0002  1.34511213302612E+0001
 2.81500000000000E+0002  1.35962982177734E+0001
 2.81000000000000E+0002  1.36405534744263E+0001
 2.80500000000000E+0002  1.35376777648926E+0001
 2.80000000000000E+0002  1.35578880310059E+0001
 2.79500000000000E+0002  1.37636823654175E+0001
 2.79000000000000E+0002  1.34577484130859E+0001
 2.78500000000000E+0002  1.33369321823120E+0001
 2.78000000000000E+0002  1.33470993041992E+0001
 2.77500000000000E+0002  1.36718769073486E+0001
 2.77000000000000E+0002  1.35562734603882E+0001
 2.76500000000000E+0002  1.42408323287964E+0001
 2.76000000000000E+0002  1.36898670196533E+0001
 2.75500000000000E+0002  1.39037151336670E+0001
 2.75000000000000E+0002  1.36996784210205E+0001
 2.74500000000000E+0002  1.40764503479004E+0001
 2.74000000000000E+0002  1.41616420745850E+0001
 2.73500000000000E+0002  1.45948629379272E+0001
 2.73000000000000E+0002  1.45351667404175E+0001
 2.72500000000000E+0002  1.35781259536743E+0001
 2.72000000000000E+0002  1.38023395538330E+0001
 2.71500000000000E+0002  1.40742006301880E+0001
 2.71000000000000E+0002  1.42823915481567E+0001
 2.70500000000000E+0002  1.43366470336914E+0001
 2.70000000000000E+0002  1.43640985488892E+0001
 2.69500000000000E+0002  1.44164810180664E+0001
 2.69000000000000E+0002  1.46875276565552E+0001
 2.68500000000000E+0002  1.45961437225342E+0001
 2.68000000000000E+0002  1.46394166946411E+0001
 2.67500000000000E+0002  1.47323722839355E+0001
 2.67000000000000E+0002  1.50074195861816E+0001
 2.66500000000000E+0002  1.51251935958862E+0001
 2.66000000000000E+0002  1.51535377502441E+0001
 2.65500000000000E+0002  1.48407268524170E+0001
 2.65000000000000E+0002  1.56170310974121E+0001
 2.64500000000000E+0002  1.57092456817627E+0001
 2.64000000000000E+0002  1.54829492568970E+0001
 2.63500000000000E+0002  1.54089746475220E+0001
 2.63000000000000E+0002  1.59240455627441E+0001
 2.62500000000000E+0002  1.58584632873535E+0001
 2.62000000000000E+0002  1.56151971817017E+0001
 2.61500000000000E+0002  1.56118535995483E+0001
 2.61000000000000E+0002  1.56405410766602E+0001
 2.60500000000000E+0002  1.54365673065186E+0001
 2.60000000000000E+0002  1.51816730499268E+0001
 2.59500000000000E+0002  1.53099708557129E+0001
 2.59000000000000E+0002  1.54663047790527E+0001
 2.58500000000000E+0002  1.54512872695923E+0001
 2.58000000000000E+0002  1.51827831268311E+0001
 2.57500000000000E+0002  1.51266441345215E+0001
 2.57000000000000E+0002  1.49640789031982E+0001
 2.56500000000000E+0002  1.49156007766724E+0001
 2.56000000000000E+0002  1.47961502075195E+0001
 2.55500000000000E+0002  1.48976106643677E+0001
 2.55000000000000E+0002  1.45241451263428E+0001
 2.54500000000000E+0002  1.47457466125488E+0001
 2.54000000000000E+0002  1.46374292373657E+0001
 2.53500000000000E+0002  1.49569473266602E+0001
 2.53000000000000E+0002  1.51332712173462E+0001
 2.52500000000000E+0002  1.46152467727661E+0001
 2.52000000000000E+0002  1.49204034805298E+0001
 2.51500000000000E+0002  1.48545789718628E+0001
 2.51000000000000E+0002  1.47149343490601E+0001
 2.50500000000000E+0002  1.50548677444458E+0001
 2.50000000000000E+0002  1.51697149276733E+0001
 2.49500000000000E+0002  1.49203395843506E+0001
 2.49000000000000E+0002  1.46713085174561E+0001
 2.48500000000000E+0002  1.53118915557861E+0001
 2.48000000000000E+0002  1.53268251419067E+0001
 2.47500000000000E+0002  1.54537992477417E+0001
 2.47000000000000E+0002  1.59760093688965E+0001
 2.46500000000000E+0002  1.66456680297852E+0001
 2.46000000000000E+0002  1.64598312377930E+0001
 2.45500000000000E+0002  1.71877861022949E+0001
 2.45000000000000E+0002  1.75608177185059E+0001
 2.44500000000000E+0002  1.75713291168213E+0001
 2.44000000000000E+0002  1.84495315551758E+0001
 2.43500000000000E+0002  1.82691822052002E+0001
 2.43000000000000E+0002  1.90312843322754E+0001
 2.42500000000000E+0002  1.94155406951904E+0001
 2.42000000000000E+0002  2.01594505310059E+0001
 2.41500000000000E+0002  2.01961135864258E+0001
 2.41000000000000E+0002  2.00146617889404E+0001
 2.40500000000000E+0002  2.01671085357666E+0001
 2.40000000000000E+0002  1.98908538818359E+0001
 2.39500000000000E+0002  1.98479423522949E+0001
 2.39000000000000E+0002  1.94273834228516E+0001
 2.38500000000000E+0002  1.96124019622803E+0001
 2.38000000000000E+0002  1.86532936096191E+0001
 2.37500000000000E+0002  1.83337707519531E+0001
 2.37000000000000E+0002  1.79582061767578E+0001
 2.36500000000000E+0002  1.76252861022949E+0001
 2.36000000000000E+0002  1.76087684631348E+0001
 2.35500000000000E+0002  1.71610202789307E+0001
 2.35000000000000E+0002  1.63865623474121E+0001
 2.34500000000000E+0002  1.58685722351074E+0001
 2.34000000000000E+0002  1.56378736495972E+0001
 2.33500000000000E+0002  1.52926988601685E+0001
 2.33000000000000E+0002  1.48916540145874E+0001
 2.32500000000000E+0002  1.44529790878296E+0001
 2.32000000000000E+0002  1.40160875320435E+0001
 2.31500000000000E+0002  1.37242269515991E+0001
 2.31000000000000E+0002  1.35370664596558E+0001
 2.30500000000000E+0002  1.32762041091919E+0001
 2.30000000000000E+0002  1.28414726257324E+0001
 2.29500000000000E+0002  1.30226287841797E+0001
 2.29000000000000E+0002  1.27637214660645E+0001
 2.28500000000000E+0002  1.26698274612427E+0001
 2.28000000000000E+0002  1.29548950195313E+0001
 2.27500000000000E+0002  1.29178867340088E+0001
 2.27000000000000E+0002  1.26687536239624E+0001
 2.26500000000000E+0002  1.26523494720459E+0001
 2.26000000000000E+0002  1.26277093887329E+0001
 2.25500000000000E+0002  1.26990470886230E+0001
 2.25000000000000E+0002  1.25239582061768E+0001
 2.24500000000000E+0002  1.26833620071411E+0001
 2.24000000000000E+0002  1.27438945770264E+0001
 2.23500000000000E+0002  1.25086917877197E+0001
 2.23000000000000E+0002  1.27845973968506E+0001
 2.22500000000000E+0002  1.25325050354004E+0001
 2.22000000000000E+0002  1.25632915496826E+0001
 2.21500000000000E+0002  1.26552305221558E+0001
 2.21000000000000E+0002  1.28020277023315E+0001
 2.20500000000000E+0002  1.24540662765503E+0001
 2.20000000000000E+0002  1.24121456146240E+0001
 2.19500000000000E+0002  1.26431064605713E+0001
 2.19000000000000E+0002  1.31006660461426E+0001
 2.18500000000000E+0002  1.28978261947632E+0001
 2.18000000000000E+0002  1.25605258941650E+0001
 2.17500000000000E+0002  1.28497085571289E+0001
 2.17000000000000E+0002  1.26384792327881E+0001
 2.16500000000000E+0002  1.29504718780518E+0001
 2.16000000000000E+0002  1.31345024108887E+0001
 2.15500000000000E+0002  1.30132122039795E+0001
 2.15000000000000E+0002  1.27909603118896E+0001
 2.14500000000000E+0002  1.29933805465698E+0001
 2.14000000000000E+0002  1.23554248809814E+0001
 2.13500000000000E+0002  1.27297792434692E+0001
 2.13000000000000E+0002  1.31372880935669E+0001
 2.12500000000000E+0002  1.26751899719238E+0001
 2.12000000000000E+0002  1.29852495193481E+0001
 2.11500000000000E+0002  1.30162267684937E+0001
 2.11000000000000E+0002  1.27533521652222E+0001
 2.10500000000000E+0002  1.32914438247681E+0001
 2.10000000000000E+0002  1.28249864578247E+0001
 2.09500000000000E+0002  1.29108629226685E+0001
 2.09000000000000E+0002  1.32315778732300E+0001
 2.08500000000000E+0002  1.29065494537354E+0001
 2.08000000000000E+0002  1.29863824844360E+0001
 2.07500000000000E+0002  1.32598075866699E+0001
 2.07000000000000E+0002  1.32810411453247E+0001
 2.06500000000000E+0002  1.33520545959473E+0001
 2.06000000000000E+0002  1.30669870376587E+0001
 2.05500000000000E+0002  1.34235849380493E+0001
 2.05000000000000E+0002  1.34472103118896E+0001
 2.04500000000000E+0002  1.33373842239380E+0001
 2.04000000000000E+0002  1.40604887008667E+0001
 2.03500000000000E+0002  1.36686172485352E+0001
 2.03000000000000E+0002  1.36482973098755E+0001
 2.02500000000000E+0002  1.34233007431030E+0001
 2.02000000000000E+0002  1.34365291595459E+0001
 2.01500000000000E+0002  1.35914688110352E+0001
 2.01000000000000E+0002  1.39642715454102E+0001
 2.00500000000000E+0002  1.41073856353760E+0001
 2.00000000000000E+0002  1.41778125762939E+0001
 1.99500000000000E+0002  1.44043245315552E+0001
 1.99000000000000E+0002  1.41463613510132E+0001
 1.98500000000000E+0002  1.42711153030396E+0001
 1.98000000000000E+0002  1.39238996505737E+0001
 1.97500000000000E+0002  1.37299575805664E+0001
 1.97000000000000E+0002  1.38632297515869E+0001
 1.96500000000000E+0002  1.37869176864624E+0001
 1.96000000000000E+0002  1.37942810058594E+0001
 1.95500000000000E+0002  1.41140260696411E+0001
 1.95000000000000E+0002  1.35598621368408E+0001
 1.94500000000000E+0002  1.43924522399902E+0001
 1.94000000000000E+0002  1.37585897445679E+0001
 1.93500000000000E+0002  1.41065587997437E+0001
 1.93000000000000E+0002  1.39498310089111E+0001
 1.92500000000000E+0002  1.40435695648193E+0001
 1.92000000000000E+0002  1.41324663162231E+0001
 1.91500000000000E+0002  1.40283594131470E+0001
 1.91000000000000E+0002  1.43575839996338E+0001
 1.90500000000000E+0002  1.42657928466797E+0001
 1.90000000000000E+0002  1.44760847091675E+0001
 1.89500000000000E+0002  1.44702367782593E+0001
 1.89000000000000E+0002  1.48425569534302E+0001
 1.88500000000000E+0002  1.42547817230225E+0001
 1.88000000000000E+0002  1.49147176742554E+0001
 1.87500000000000E+0002  1.42744445800781E+0001
 1.87000000000000E+0002  1.47941751480103E+0001
 1.86500000000000E+0002  1.42480907440186E+0001
 1.86000000000000E+0002  1.44641618728638E+0001
 1.85500000000000E+0002  1.43556013107300E+0001
 1.85000000000000E+0002  1.50070295333862E+0001
 1.84500000000000E+0002  1.46049509048462E+0001
 1.84000000000000E+0002  1.45769939422607E+0001
 1.83500000000000E+0002  1.40942707061768E+0001
 1.83000000000000E+0002  1.43898830413818E+0001
 1.82500000000000E+0002  1.46513080596924E+0001
 1.82000000000000E+0002  1.51189928054810E+0001
 1.81500000000000E+0002  1.42875604629517E+0001
 1.81000000000000E+0002  1.42375440597534E+0001
 1.80500000000000E+0002  1.46157588958740E+0001
 1.80000000000000E+0002  1.44797925949097E+0001
 1.79500000000000E+0002  1.48563375473022E+0001
 1.79000000000000E+0002  1.49126491546631E+0001
 1.78500000000000E+0002  1.48957557678223E+0001
 1.78000000000000E+0002  1.44693317413330E+0001
 1.77500000000000E+0002  1.48919715881348E+0001
 1.77000000000000E+0002  1.45898437500000E+0001
 1.76500000000000E+0002  1.47304315567017E+0001
 1.76000000000000E+0002  1.52234039306641E+0001
 1.75500000000000E+0002  1.50963783264160E+0001
 1.75000000000000E+0002  1.48160247802734E+0001
 1.74500000000000E+0002  1.51569108963013E+0001
 1.74000000000000E+0002  1.51515531539917E+0001
 1.73500000000000E+0002  1.52072439193726E+0001
 1.73000000000000E+0002  1.54064922332764E+0001
 1.72500000000000E+0002  1.53803834915161E+0001
 1.72000000000000E+0002  1.56849441528320E+0001
 1.71500000000000E+0002  1.59798421859741E+0001
 1.71000000000000E+0002  1.63749561309814E+0001
 1.70500000000000E+0002  1.59249429702759E+0001
 1.70000000000000E+0002  1.55354776382446E+0001
 1.69500000000000E+0002  1.56631402969360E+0001
 1.69000000000000E+0002  1.53966236114502E+0001
 1.68500000000000E+0002  1.54241962432861E+0001
 1.68000000000000E+0002  1.58999261856079E+0001
 1.67500000000000E+0002  1.61579608917236E+0001
 1.67000000000000E+0002  1.62711486816406E+0001
 1.66500000000000E+0002  1.57770595550537E+0001
 1.66000000000000E+0002  1.55475788116455E+0001
 1.65500000000000E+0002  1.55378971099854E+0001
 1.65000000000000E+0002  1.55832061767578E+0001
 1.64500000000000E+0002  1.57097101211548E+0001
 1.64000000000000E+0002  1.58054714202881E+0001
 1.63500000000000E+0002  1.57946004867554E+0001
 1.63000000000000E+0002  1.60602798461914E+0001
 1.62500000000000E+0002  1.56430664062500E+0001
 1.62000000000000E+0002  1.59952077865601E+0001
 1.61500000000000E+0002  1.58754138946533E+0001
 1.61000000000000E+0002  1.59853706359863E+0001
 1.60500000000000E+0002  1.58534994125366E+0001
 1.60000000000000E+0002  1.60152645111084E+0001
 1.59500000000000E+0002  1.58739519119263E+0001
 1.59000000000000E+0002  1.62765522003174E+0001
 1.58500000000000E+0002  1.61500015258789E+0001
 1.58000000000000E+0002  1.65740242004395E+0001
 1.57500000000000E+0002  1.61076622009277E+0001
 1.57000000000000E+0002  1.63975429534912E+0001
 1.56500000000000E+0002  1.68555908203125E+0001
 1.56000000000000E+0002  1.67554569244385E+0001
 1.55500000000000E+0002  1.74692287445068E+0001
 1.55000000000000E+0002  1.83581008911133E+0001
 1.54500000000000E+0002  1.87278766632080E+0001
 1.54000000000000E+0002  1.82388820648193E+0001
 1.53500000000000E+0002  1.83071365356445E+0001
 1.53000000000000E+0002  1.78992786407471E+0001
 1.52500000000000E+0002  1.72409248352051E+0001
 1.52000000000000E+0002  1.70244483947754E+0001
 1.51500000000000E+0002  1.68215465545654E+0001
 1.51000000000000E+0002  1.62468204498291E+0001
 1.50500000000000E+0002  1.60466880798340E+0001
 1.50000000000000E+0002  1.61889343261719E+0001
 1.49500000000000E+0002  1.61423797607422E+0001
 1.49000000000000E+0002  1.53830976486206E+0001
 1.48500000000000E+0002  1.52731218338013E+0001
 1.48000000000000E+0002  1.54372653961182E+0001
 1.47500000000000E+0002  1.60772705078125E+0001
 1.47000000000000E+0002  1.56982250213623E+0001
 1.46500000000000E+0002  1.55610208511353E+0001
 1.46000000000000E+0002  1.60404663085938E+0001
 1.45500000000000E+0002  1.58978013992310E+0001
 1.45000000000000E+0002  1.57930469512939E+0001
 1.44500000000000E+0002  1.57219400405884E+0001
 1.44000000000000E+0002  1.57089395523071E+0001
 1.43500000000000E+0002  1.59455718994141E+0001
 1.43000000000000E+0002  1.56901445388794E+0001
 1.42500000000000E+0002  1.59167881011963E+0001
 1.42000000000000E+0002  1.59487581253052E+0001
 1.41500000000000E+0002  1.60976543426514E+0001
 1.41000000000000E+0002  1.58254156112671E+0001
 1.40500000000000E+0002  1.62241420745850E+0001
 1.40000000000000E+0002  1.61562995910645E+0001
 1.39500000000000E+0002  1.59779825210571E+0001
 1.39000000000000E+0002  1.57965326309204E+0001
 1.38500000000000E+0002  1.59657382965088E+0001
 1.38000000000000E+0002  1.62152900695801E+0001
 1.37500000000000E+0002  1.59746370315552E+0001
 1.37000000000000E+0002  1.60361595153809E+0001
 1.36500000000000E+0002  1.60606307983398E+0001
 1.36000000000000E+0002  1.63008003234863E+0001
 1.35500000000000E+0002  1.63295936584473E+0001
 1.35000000000000E+0002  1.60718116760254E+0001
 1.34500000000000E+0002  1.61829872131348E+0001
 1.34000000000000E+0002  1.62655639648438E+0001
 1.33500000000000E+0002  1.63445358276367E+0001
 1.33000000000000E+0002  1.62538738250732E+0001
 1.32500000000000E+0002  1.62450828552246E+0001
 1.32000000000000E+0002  1.62589931488037E+0001
 1.31500000000000E+0002  1.63407840728760E+0001
 1.31000000000000E+0002  1.62578563690186E+0001
 1.30500000000000E+0002  1.65086956024170E+0001
 1.30000000000000E+0002  1.60881252288818E+0001
 1.29500000000000E+0002  1.65021324157715E+0001
 1.29000000000000E+0002  1.63632488250732E+0001
 1.28500000000000E+0002  1.62787914276123E+0001
 1.28000000000000E+0002  1.63180809020996E+0001
 1.27500000000000E+0002  1.58015155792236E+0001
 1.27000000000000E+0002  1.59735183715820E+0001
 1.26500000000000E+0002  1.63335800170898E+0001
 1.26000000000000E+0002  1.59044332504272E+0001
 1.25500000000000E+0002  1.57337722778320E+0001
 1.25000000000000E+0002  1.62522926330566E+0001
 1.24500000000000E+0002  1.61514911651611E+0001
 1.24000000000000E+0002  1.62520408630371E+0001
 1.23500000000000E+0002  1.60351448059082E+0001
 1.23000000000000E+0002  1.59731035232544E+0001
 1.22500000000000E+0002  1.61300754547119E+0001
 1.22000000000000E+0002  1.59229297637939E+0001
 1.21500000000000E+0002  1.65233078002930E+0001
 1.21000000000000E+0002  1.61023445129395E+0001
 1.20500000000000E+0002  1.64288749694824E+0001
 1.20000000000000E+0002  1.66522274017334E+0001
 1.19500000000000E+0002  1.64057407379150E+0001
 1.19000000000000E+0002  1.65745315551758E+0001
 1.18500000000000E+0002  1.65033874511719E+0001
 1.18000000000000E+0002  1.66581630706787E+0001
 1.17500000000000E+0002  1.66769180297852E+0001
 1.17000000000000E+0002  1.65530376434326E+0001
 1.16500000000000E+0002  1.69884338378906E+0001
 1.16000000000000E+0002  1.71641616821289E+0001
 1.15500000000000E+0002  1.67578220367432E+0001
 1.15000000000000E+0002  1.72149620056152E+0001
 1.14500000000000E+0002  1.68409690856934E+0001
 1.14000000000000E+0002  1.74992599487305E+0001
 1.13500000000000E+0002  1.73415718078613E+0001
 1.13000000000000E+0002  1.73742523193359E+0001
 1.12500000000000E+0002  1.72495746612549E+0001
 1.12000000000000E+0002  1.75456504821777E+0001
 1.11500000000000E+0002  1.79142856597900E+0001
 1.11000000000000E+0002  1.76153507232666E+0001
 1.10500000000000E+0002  1.77508869171143E+0001
 1.10000000000000E+0002  1.84428215026855E+0001
 1.09500000000000E+0002  1.83359375000000E+0001
 1.09000000000000E+0002  1.84252052307129E+0001
 1.08500000000000E+0002  1.88995761871338E+0001
 1.08000000000000E+0002  1.86769886016846E+0001
 1.07500000000000E+0002  1.87244415283203E+0001
 1.07000000000000E+0002  1.89823570251465E+0001
 1.06500000000000E+0002  1.88475189208984E+0001
 1.06000000000000E+0002  1.90164146423340E+0001
 1.05500000000000E+0002  1.90233364105225E+0001
 1.05000000000000E+0002  1.91723976135254E+0001
 1.04500000000000E+0002  2.14408016204834E+0001
 1.04000000000000E+0002  2.35803661346436E+0001
 1.03500000000000E+0002  2.50594596862793E+0001
 1.03000000000000E+0002  2.53109626770020E+0001
 1.02500000000000E+0002  2.48169517517090E+0001
 1.02000000000000E+0002  2.27951927185059E+0001
 1.01500000000000E+0002  2.04473514556885E+0001
 1.01000000000000E+0002  1.89620914459229E+0001
 1.00500000000000E+0002  1.90790386199951E+0001
 1.00000000000000E+0002  1.86170845031738E+0001
 9.95000000000000E+0001  1.78934535980225E+0001
 9.90000000000000E+0001  1.79919910430908E+0001
 9.85000000000000E+0001  1.79205856323242E+0001
 9.80000000000000E+0001  1.78606796264648E+0001
 9.75000000000000E+0001  1.79853534698486E+0001
 9.70000000000000E+0001  1.70410690307617E+0001
 9.65000000000000E+0001  1.72722396850586E+0001
 9.60000000000000E+0001  1.67884807586670E+0001
 9.55000000000000E+0001  1.61372966766357E+0001
 9.50000000000000E+0001  1.58805418014526E+0001
 9.45000000000000E+0001  1.55395488739014E+0001
 9.40000000000000E+0001  1.50230722427368E+0001
 9.35000000000000E+0001  1.46680860519409E+0001
 9.30000000000000E+0001  1.44883251190186E+0001
 9.25000000000000E+0001  1.40089206695557E+0001
 9.20000000000000E+0001  1.32475175857544E+0001
 9.15000000000000E+0001  1.29649238586426E+0001
 9.10000000000000E+0001  1.28671312332153E+0001
 9.05000000000000E+0001  1.26896409988403E+0001
 9.00000000000000E+0001  1.23610582351685E+0001
 8.95000000000000E+0001  1.21045770645142E+0001
 8.90000000000000E+0001  1.13685216903687E+0001
 8.85000000000000E+0001  1.11656961441040E+0001
 8.80000000000000E+0001  1.11632804870605E+0001
 8.75000000000000E+0001  1.07490644454956E+0001
 8.70000000000000E+0001  1.05676851272583E+0001
 8.65000000000000E+0001  1.02613563537598E+0001
 8.60000000000000E+0001  1.00931615829468E+0001
 8.55000000000000E+0001  9.95895195007324E+0000
 8.50000000000000E+0001  9.64419841766357E+0000
 8.45000000000000E+0001  1.01455450057983E+0001
 8.40000000000000E+0001  9.90524387359619E+0000
 8.35000000000000E+0001  1.03297014236450E+0001
 8.30000000000000E+0001  1.05755367279053E+0001
 8.25000000000000E+0001  1.08922739028931E+0001
 8.20000000000000E+0001  1.14500589370728E+0001
 8.15000000000000E+0001  1.12830200195312E+0001
 8.10000000000000E+0001  1.14203605651855E+0001
 8.05000000000000E+0001  1.17490720748901E+0001
 8.00000000000000E+0001  1.21871128082275E+0001
 7.95000000000000E+0001  1.29456300735474E+0001
 7.90000000000000E+0001  1.34686470031738E+0001
 7.85000000000000E+0001  1.42317733764648E+0001
 7.80000000000000E+0001  1.45819149017334E+0001
 7.75000000000000E+0001  1.58321237564087E+0001
 7.70000000000000E+0001  1.83969783782959E+0001
 7.65000000000000E+0001  2.32441310882568E+0001
 7.60000000000000E+0001  3.41470870971680E+0001
 7.55000000000000E+0001  5.77376060485840E+0001
 7.50000000000000E+0001  9.47888717651367E+0001
 7.45000000000000E+0001  5.92597427368164E+0001
 7.40000000000000E+0001  1.96216754913330E+0001
 7.35000000000000E+0001  1.71418647766113E+0001
 7.30000000000000E+0001  2.29069728851318E+0001
 7.25000000000000E+0001  3.93503684997559E+0001
 7.20000000000000E+0001  7.91410522460937E+0001
 7.15000000000000E+0001  1.08442077636719E+0002
 7.10000000000000E+0001  3.34869613647461E+0001
 7.05000000000000E+0001  4.71582269668579E+0000
 7.00000000000000E+0001  1.94518840312958E+0000
 6.95000000000000E+0001  1.38542127609253E+0000
 6.90000000000000E+0001  1.16252839565277E+0000
 6.85000000000000E+0001  1.02647733688354E+0000
 6.80000000000000E+0001  9.45871293544769E-0001
 6.75000000000000E+0001  8.23737502098083E-0001
 6.70000000000000E+0001  8.80692720413208E-0001
 6.65000000000000E+0001  8.25575709342957E-0001
 6.60000000000000E+0001  7.13539719581604E-0001
 6.55000000000000E+0001  7.33088016510010E-0001
 6.50000000000000E+0001  7.26044178009033E-0001
 6.45000000000000E+0001  7.53386497497559E-0001
 6.40000000000000E+0001  8.17242562770844E-0001
 6.35000000000000E+0001  7.70335555076599E-0001
 6.30000000000000E+0001  6.50987982749939E-0001
 6.25000000000000E+0001  6.15790426731110E-0001
 6.20000000000000E+0001  6.44159078598022E-0001
 6.15000000000000E+0001  6.29478514194489E-0001
 6.10000000000000E+0001  6.55833840370178E-0001
 6.05000000000000E+0001  6.58795475959778E-0001
 6.00000000000000E+0001  6.14125847816467E-0001
 5.95000000000000E+0001  6.45093500614166E-0001
 5.90000000000000E+0001  6.94454729557037E-0001
 5.85000000000000E+0001  7.48870372772217E-0001
 5.80000000000000E+0001  7.80300915241241E-0001
 5.75000000000000E+0001  8.18685889244080E-0001
 5.70000000000000E+0001  8.03256034851074E-0001
 5.65000000000000E+0001  8.17008078098297E-0001
 5.60000000000000E+0001  9.02541279792786E-0001
 5.55000000000000E+0001  8.96847426891327E-0001
 5.50000000000000E+0001  9.18479681015015E-0001
 5.45000000000000E+0001  9.24053549766541E-0001
 5.40000000000000E+0001  9.78191554546356E-0001
 5.35000000000000E+0001  9.97629404067993E-0001
 5.30000000000000E+0001  1.02535021305084E+0000
 5.25000000000000E+0001  1.01789343357086E+0000
 5.20000000000000E+0001  9.58119392395020E-0001
 5.15000000000000E+0001  9.39241826534271E-0001
 5.10000000000000E+0001  8.74728560447693E-0001
 5.05000000000000E+0001  8.64655435085297E-0001
 5.00000000000000E+0001  7.86444723606110E-0001
 4.95000000000000E+0001  7.83013761043549E-0001
 4.90000000000000E+0001  6.61508560180664E-0001
 4.85000000000000E+0001  6.31876230239868E-0001
 4.80000000000000E+0001  6.22007071971893E-0001
 4.75000000000000E+0001  5.71846663951874E-0001
 4.70000000000000E+0001  5.81674933433533E-0001
 4.65000000000000E+0001  5.99298417568207E-0001
 4.60000000000000E+0001  6.26133322715759E-0001
 4.55000000000000E+0001  6.29802465438843E-0001
 4.50000000000000E+0001  7.25878357887268E-0001
 4.45000000000000E+0001  7.09567487239838E-0001
 4.40000000000000E+0001  5.94431340694428E-0001
 4.35000000000000E+0001  5.26716470718384E-0001
 4.30000000000000E+0001  4.64536726474762E-0001
 4.25000000000000E+0001  3.97909879684448E-0001
 4.20000000000000E+0001  3.69369089603424E-0001
 4.15000000000000E+0001  3.24904233217239E-0001
 4.10000000000000E+0001  3.54491144418716E-0001
 4.05000000000000E+0001  3.29275250434876E-0001
 4.00000000000000E+0001  3.05392533540726E-0001
 3.95000000000000E+0001  3.12843143939972E-0001
 3.90000000000000E+0001  3.29057067632675E-0001
 3.85000000000000E+0001  3.09790372848511E-0001
 3.80000000000000E+0001  3.04943978786468E-0001
 3.75000000000000E+0001  2.94559597969055E-0001
 3.70000000000000E+0001  3.17325562238693E-0001
 3.65000000000000E+0001  2.67485857009888E-0001
 3.60000000000000E+0001  3.35499078035355E-0001
 3.55000000000000E+0001  3.16790312528610E-0001
 3.50000000000000E+0001  3.10472667217255E-0001
 3.45000000000000E+0001  3.16857129335403E-0001
 3.40000000000000E+0001  3.17527025938034E-0001
 3.35000000000000E+0001  3.42407613992691E-0001
 3.30000000000000E+0001  3.37861061096191E-0001
 3.25000000000000E+0001  3.13660591840744E-0001
 3.20000000000000E+0001  3.64703834056854E-0001
 3.15000000000000E+0001  3.44579130411148E-0001
 3.10000000000000E+0001  3.66938382387161E-0001
 3.05000000000000E+0001  3.68953347206116E-0001
 3.00000000000000E+0001  3.32495778799057E-0001
 2.95000000000000E+0001  3.42885106801987E-0001
 2.90000000000000E+0001  3.53771030902863E-0001
 2.85000000000000E+0001  3.59275311231613E-0001
 2.80000000000000E+0001  3.54601025581360E-0001
 2.75000000000000E+0001  4.91508245468140E-0001
 2.70000000000000E+0001  5.56185543537140E-0001
 2.65000000000000E+0001  7.46630251407623E-0001
 2.60000000000000E+0001  8.85186016559601E-0001
 2.55000000000000E+0001  8.87212216854095E-0001
 2.50000000000000E+0001  7.11757481098175E-0001
 2.45000000000000E+0001  4.86612021923065E-0001
 2.40000000000000E+0001  4.25177782773972E-0001
 2.35000000000000E+0001  3.52913647890091E-0001
 2.30000000000000E+0001  3.73547136783600E-0001
 2.25000000000000E+0001  3.29216748476028E-0001
 2.20000000000000E+0001  3.06653261184692E-0001
 2.15000000000000E+0001  2.62229233980179E-0001
 2.10000000000000E+0001  2.09190234541893E-0001
 2.05000000000000E+0001  2.08625152707100E-0001
 2.00000000000000E+0001  1.91135659813881E-0001
 1.95000000000000E+0001  2.22874104976654E-0001
 1.90000000000000E+0001  1.81060254573822E-0001
 1.85000000000000E+0001  2.36884951591492E-0001
 1.80000000000000E+0001  2.46210202574730E-0001
 1.75000000000000E+0001  2.21447125077248E-0001
 1.70000000000000E+0001  2.04807847738266E-0001
 1.65000000000000E+0001  1.84542104601860E-0001
 1.60000000000000E+0001  1.50097668170929E-0001
 1.55000000000000E+0001  1.83025687932968E-0001
 1.50000000000000E+0001  1.66789293289185E-0001
 1.45000000000000E+0001  1.83665037155151E-0001
 1.40000000000000E+0001  1.82591527700424E-0001
 1.35000000000000E+0001  2.06936180591583E-0001
 1.30000000000000E+0001  2.15313985943794E-0001
 1.25000000000000E+0001  1.98942527174950E-0001
 1.20000000000000E+0001  2.09368556737900E-0001
 1.15000000000000E+0001  2.09687456488609E-0001
 1.10000000000000E+0001  2.56936281919479E-0001
 1.05000000000000E+0001  2.59737312793732E-0001
 1.00000000000000E+0001  2.57685244083405E-0001
 9.50000000000000E+0000  2.66048252582550E-0001
 9.00000000000000E+0000  3.30708324909210E-0001
 8.50000000000000E+0000  3.35728049278259E-0001
 8.00000000000000E+0000  3.72672855854034E-0001
 7.50000000000000E+0000  3.93754392862320E-0001
 7.00000000000000E+0000  4.78947401046753E-0001
 6.50000000000000E+0000  5.46177566051483E-0001
 6.00000000000000E+0000  5.72418153285980E-0001
 5.50000000000000E+0000  6.25493824481964E-0001
 5.00000000000000E+0000  7.35370218753815E-0001
 4.50000000000000E+0000  7.48584270477295E-0001
 4.00000000000000E+0000  5.59783101081848E-0001
 3.50000000000000E+0000  5.55901050567627E-0001
 3.00000000000000E+0000  6.09341025352478E-0001
 2.50000000000000E+0000  7.73359775543213E-0001
 2.00000000000000E+0000  7.58505344390869E-0001
 1.50000000000000E+0000  7.11875975131988E-0001
 1.00000000000000E+0000  6.45537972450256E-0001
 5.00000000000000E-0001  2.91815280914307E-0001
 0.00000000000000E+0000  9.46792401373386E-0003
-5.00000000000000E-0001  2.01743887737393E-0003
-1.00000000000000E+0000  2.29125237092376E-0003
-1.50000000000000E+0000  1.64786807727069E-0003
-2.00000000000000E+0000  0.00000000000000E+0000
-2.50000000000000E+0000  8.81024287082255E-0004
-3.00000000000000E+0000  3.39156133122742E-0004
-3.50000000000000E+0000  1.42276275437325E-0003
-4.00000000000000E+0000  6.83991005644202E-0003
-4.50000000000000E+0000  4.80502657592297E-0003
-5.00000000000000E+0000  8.34232836496085E-0004

